Note,Latitude,Longitude,Ell.Height (m)
2,32.41763067,55.32860658,1137.753
3,32.41753751,55.32856582,1137.544
4,32.41735858,55.32849047,1137.597
5,32.41718513,55.32841862,1137.489
6,32.41701311,55.32834684,1137.726
7,32.4168451,55.32827618,1137.885
8,32.41667609,55.32820507,1137.931
9,32.41650733,55.32813388,1137.977
10,32.41633852,55.3280626,1138.191
11,32.41616748,55.32799046,1138.456
12,32.41600687,55.32792228,1138.612
13,32.41597313,55.32787954,1138.68
14,32.41608359,55.32770179,1138.452
15,32.41619385,55.32759245,1138.655
16,32.41636718,55.32765197,1138.341
17,32.41654384,55.3277247,1137.867
18,32.41671458,55.32779601,1138.035
19,32.4168838,55.3278672,1138.091
20,32.41705181,55.32793775,1138.035
21,32.41722306,55.32800983,1138.013
22,32.41739271,55.32808071,1138.158
23,32.41756062,55.32815178,1138.117
24,32.41773076,55.32822327,1138.2
25,32.41789879,55.32829363,1138.331
26,32.41797418,55.32829486,1138.346
27,32.41810328,55.3281442,1137.814
28,32.41817854,55.3280065,1137.732
29,32.41800768,55.32791892,1137.646
30,32.41783384,55.32784392,1137.506
31,32.41766183,55.32777082,1137.717
32,32.41749344,55.32770017,1137.794
33,32.41732431,55.32762966,1137.88
34,32.41715558,55.32755876,1137.974
35,32.41698402,55.32748668,1138.18
36,32.41681554,55.32741577,1138.282
37,32.41664617,55.32734472,1138.392
38,32.41648287,55.32727528,1138.57
39,32.4164431,55.32722849,1138.589
40,32.41655429,55.32705044,1138.209
41,32.41666515,55.32694158,1138.448
42,32.41683784,55.32700138,1138.113
43,32.41701458,55.32707405,1137.691
44,32.41718603,55.32714598,1137.868
45,32.41735456,55.32721703,1137.91
46,32.41752352,55.32728855,1137.93
47,32.41769451,55.32736087,1137.928
48,32.41786308,55.32743194,1137.926
49,32.41803191,55.32750283,1137.767
50,32.41820099,55.32757408,1137.763
51,32.41836857,55.3276452,1137.698
52,32.41846115,55.32765265,1137.694
53,32.4185905,55.32750094,1137.394
54,32.41866515,55.32736525,1137.443
55,32.41849325,55.32727687,1137.389
56,32.41832017,55.3272017,1137.287
57,32.41814766,55.32712924,1137.593
58,32.4179797,55.32705846,1137.865
59,32.4178107,55.32698765,1138.123
60,32.41763946,55.3269158,1138.313
61,32.41747128,55.32684541,1138.47
62,32.41730284,55.32677454,1138.553
63,32.4171319,55.32670268,1138.629
64,32.41696818,55.32663376,1138.81
65,32.41691321,55.32658178,1138.971
66,32.41702375,55.32640254,1138.548
67,32.41713257,55.32629395,1138.582
68,32.41730706,55.32635428,1138.263
69,32.41748271,55.32642662,1137.923
70,32.41765527,55.32649912,1138.063
71,32.41782291,55.32656977,1137.987
72,32.4179911,55.32664107,1138.041
73,32.41816254,55.32671354,1138.099
74,32.41833023,55.32678453,1138.181
75,32.41849948,55.32685594,1138.124
76,32.41866812,55.32692707,1138.097
77,32.41883722,55.32699816,1138.079
78,32.41894449,55.32701175,1138.135
79,32.41907327,55.32686136,1137.6
80,32.41914885,55.32672413,1137.494
81,32.41897739,55.32663614,1137.561
82,32.4188043,55.32656147,1137.437
83,32.41863464,55.32648985,1137.73
84,32.41846481,55.32641862,1137.968
85,32.41829371,55.32634629,1138.217
86,32.41812408,55.326275,1138.477
87,32.41795569,55.32620417,1138.611
88,32.41778514,55.32613263,1138.635
89,32.41761611,55.32606127,1138.631
90,32.41745102,55.32599142,1138.78
91,32.41738043,55.32593275,1139.01
92,32.41748886,55.32575628,1138.522
93,32.41760112,55.32564599,1138.835
94,32.41777231,55.32570435,1138.648
95,32.4179513,55.3257774,1138.106
96,32.418123,55.32584881,1138.175
97,32.41829131,55.32592024,1138.192
98,32.41846249,55.32599213,1138.131
99,32.4186318,55.32606428,1138.262
100,32.41880014,55.32613578,1138.397
101,32.41896785,55.32620599,1138.255
102,32.41913726,55.32627758,1137.979
103,32.4193077,55.32634933,1137.905
104,32.41943148,55.32636935,1137.955
105,32.41955933,55.32622005,1137.43
106,32.41963554,55.32608168,1137.483
107,32.41946416,55.32599422,1137.642
108,32.41929035,55.32591869,1137.557
109,32.41912125,55.32584705,1137.866
110,32.41895289,55.32577635,1137.886
111,32.41878136,55.32570441,1138.062
112,32.41860863,55.32563115,1138.29
113,32.41843944,55.32556008,1138.553
114,32.41827128,55.32548946,1138.787
115,32.41810301,55.32541818,1138.837
116,32.41793669,55.32534713,1138.77
117,32.41785162,55.32528187,1138.824
118,32.41796181,55.32510431,1138.375
119,32.41807083,55.32499565,1138.412
120,32.4182444,55.32505511,1138.008
121,32.41842102,55.32512761,1137.763
122,32.41859604,55.3252007,1138.127
123,32.41876486,55.32527227,1138.51
124,32.41893147,55.32534335,1138.402
125,32.41909893,55.32541449,1138.059
126,32.41927059,55.32548696,1137.896
127,32.41944058,55.32555871,1137.804
128,32.41960874,55.32562962,1137.631
129,32.41977683,55.32570009,1137.595
130,32.41991658,55.32572767,1137.743
131,32.42004351,55.32557454,1137.359
132,32.42011554,55.32543798,1137.684
133,32.41994444,55.32534996,1137.773
134,32.41977003,55.32527379,1137.611
135,32.41960133,55.32520268,1137.789
136,32.41943392,55.3251322,1138.093
137,32.41926328,55.325061,1138.29
138,32.41909533,55.32499051,1138.512
139,32.41892371,55.32491791,1138.745
140,32.41875416,55.32484634,1139.009
141,32.41858638,55.32477568,1139.092
142,32.41841702,55.32470403,1139.223
143,32.41832293,55.32463494,1139.422
144,32.41843365,55.32445722,1138.968
145,32.4185441,55.32434701,1139.274
146,32.41871733,55.32440665,1139.123
147,32.41889507,55.32447963,1138.921
148,32.41906566,55.32455166,1139.203
149,32.41923426,55.32462331,1139.099
150,32.41940206,55.32469389,1138.915
151,32.41957295,55.32476637,1138.677
152,32.41974134,55.32483745,1138.419
153,32.41991036,55.32490941,1138.302
154,32.42007917,55.32498032,1138.352
155,32.42024803,55.32505143,1138.241
156,32.42038918,55.32507947,1138.292
157,32.42051589,55.32492561,1137.792
158,32.42058694,55.32478996,1137.783
159,32.42041633,55.32470281,1137.898
160,32.42024043,55.32462572,1137.858
161,32.42007121,55.32455352,1138.215
162,32.41990244,55.32448252,1138.545
163,32.4197337,55.32441185,1138.684
164,32.41956291,55.32433999,1138.782
165,32.41939459,55.32426879,1138.937
166,32.41922636,55.32419727,1139.028
167,32.41905571,55.3241255,1139.088
168,32.41888943,55.32405511,1139.129
169,32.41879263,55.32398452,1139.325
170,32.41890149,55.32380923,1138.894
171,32.41901442,55.32369561,1138.97
172,32.41918589,55.32375518,1138.678
173,32.41936345,55.32382898,1138.287
174,32.41953515,55.32390116,1138.433
175,32.41970272,55.32397238,1138.309
176,32.41987425,55.32404493,1138.392
177,32.42004243,55.32411625,1138.408
178,32.42021072,55.32418701,1138.28
179,32.42038217,55.32425931,1138.198
180,32.42055024,55.32433003,1138.075
181,32.42071844,55.32440116,1137.792
182,32.42086002,55.32442857,1137.915
183,32.420987,55.32427337,1137.907
184,32.421057,55.32413752,1138.196
185,32.42088659,55.3240514,1138.172
186,32.4207098,55.32397478,1138.259
187,32.42054304,55.32390446,1138.352
188,32.42037276,55.3238326,1138.363
189,32.42020308,55.32376143,1138.592
190,32.42003187,55.32368951,1138.817
191,32.41986222,55.32361835,1138.926
192,32.4196923,55.32354678,1139.106
193,32.41952311,55.32347539,1139.398
194,32.4193547,55.32340381,1139.393
195,32.41926155,55.32333559,1139.476
196,32.41937064,55.32315873,1139.043
197,32.41948035,55.32304829,1139.251
198,32.4196556,55.32310752,1138.973
199,32.41983032,55.32317961,1138.704
200,32.42000296,55.32325197,1138.712
201,32.42017097,55.32332245,1138.553
202,32.42034224,55.32339479,1138.493
203,32.42050916,55.32346603,1138.328
204,32.4206791,55.32353757,1138.308
205,32.42085102,55.32361025,1138.573
206,32.42101878,55.32368094,1138.602
207,32.42118744,55.32375204,1138.53
208,32.42132639,55.32377877,1138.511
209,32.42145303,55.32362574,1138.261
210,32.421524,55.32348984,1138.319
211,32.42135593,55.32340283,1138.303
212,32.42117974,55.32332641,1138.13
213,32.42101053,55.3232545,1138.305
214,32.42084186,55.32318329,1138.528
215,32.42067388,55.3231119,1138.851
216,32.4205022,55.3230402,1139.054
217,32.42033167,55.32296831,1139.25
218,32.42016345,55.32289756,1139.198
219,32.41999507,55.32282714,1139.188
220,32.41982601,55.32275567,1139.378
221,32.41973173,55.32268667,1139.515
222,32.41984027,55.32251054,1139.243
223,32.41995175,55.322399,1139.446
224,32.42012507,55.32245834,1139.073
225,32.42030026,55.32252937,1138.677
226,32.42047091,55.32260134,1138.801
227,32.42064123,55.32267404,1138.771
228,32.42080893,55.322745,1138.75
229,32.42097731,55.32281601,1138.584
230,32.42114816,55.32288848,1138.444
231,32.4213176,55.32295991,1138.339
232,32.42148635,55.32303094,1138.41
233,32.42165728,55.32310287,1138.335
234,32.42179705,55.32312968,1138.493
235,32.42192353,55.32297399,1138.385
236,32.42199344,55.32283887,1138.684
237,32.42182278,55.32275282,1138.657
238,32.42164874,55.32267689,1138.655
239,32.42147911,55.32260395,1139.103
240,32.42130859,55.32253313,1139.579
241,32.4211412,55.32246308,1139.757
242,32.42097334,55.32239247,1139.937
243,32.42080356,55.32232032,1140.134
244,32.42063496,55.32224912,1140.383
245,32.42046498,55.32217673,1140.636
246,32.42029658,55.32210555,1140.836
247,32.42020249,55.32203654,1140.941
248,32.42031137,55.32186099,1140.15
249,32.42042274,55.32175031,1140.039
250,32.4205951,55.32180868,1139.557
251,32.42077218,55.32188166,1139.128
252,32.42094335,55.32195369,1139.301
253,32.42111479,55.32202612,1139.46
254,32.42128205,55.3220966,1139.311
255,32.42144986,55.32216755,1139.059
256,32.42161992,55.3222391,1138.943
257,32.42178942,55.32231119,1138.986
258,32.42196255,55.32238404,1139.087
259,32.4221309,55.3224549,1139.02
260,32.42226869,55.32248078,1139.033
261,32.42239522,55.32232643,1138.917
262,32.42246501,55.32219108,1139.124
263,32.4222961,55.32210518,1139.13
264,32.42211873,55.32202744,1139.34
265,32.42194903,55.32195493,1139.707
266,32.42177812,55.3218836,1139.987
267,32.42160996,55.32181302,1140.072
268,32.4214415,55.32174174,1140.138
269,32.42127298,55.32167103,1140.249
270,32.42110142,55.32159821,1140.253
271,32.42093204,55.32152665,1140.189
272,32.42076612,55.32145607,1140.189
273,32.42067086,55.32138664,1140.219
274,32.42077918,55.32121042,1140.095
275,32.42089038,55.32110007,1140.549
276,32.42106346,55.32115913,1140.381
277,32.42124052,55.32123265,1140.028
278,32.42141143,55.3213044,1140.261
279,32.42157963,55.32137532,1140.238
280,32.42174981,55.32144697,1140.127
281,32.42192108,55.32151958,1139.995
282,32.4220896,55.32159122,1139.854
283,32.42225816,55.32166276,1139.568
284,32.42242688,55.32173363,1139.194
285,32.42259551,55.32180423,1138.989
286,32.42273373,55.32183152,1139.016
287,32.42286106,55.32167752,1138.852
288,32.42293034,55.32154009,1139.018
289,32.42276134,55.32145391,1139.065
290,32.42258523,55.32137792,1138.969
291,32.4224159,55.32130594,1139.183
292,32.42224842,55.32123553,1139.317
293,32.42207697,55.3211631,1139.423
294,32.42190893,55.32109236,1139.441
295,32.42174009,55.32102155,1139.58
296,32.42156844,55.32094905,1139.779
297,32.42140006,55.32087766,1139.978
298,32.42123116,55.32080629,1140.258
299,32.42113936,55.32073888,1140.263
300,32.42124911,55.32056105,1140.112
301,32.42135908,55.32045066,1140.412
302,32.42153378,55.32051139,1140.08
303,32.42170838,55.32058393,1139.836
304,32.42187865,55.32065573,1140.093
305,32.42204624,55.3207261,1140.108
306,32.42221698,55.32079866,1140.02
307,32.4223859,55.32086989,1139.965
308,32.42255365,55.32094099,1139.903
309,32.42272504,55.32101318,1139.738
310,32.42289414,55.32108455,1139.589
311,32.4230628,55.32115565,1139.488
312,32.42320378,55.32118252,1139.572
313,32.42333107,55.32102683,1139.455
314,32.42340043,55.32089231,1139.565
315,32.42323107,55.32080505,1139.751
316,32.42305545,55.320729,1139.805
317,32.42288628,55.32065723,1140.135
318,32.42271826,55.32058689,1140.208
319,32.42254869,55.32051606,1140.32
320,32.42237981,55.32044469,1140.51
321,32.42220999,55.32037263,1140.733
322,32.42203786,55.32029956,1140.981
323,32.42186918,55.32022822,1141.012
324,32.42170062,55.32015709,1141.086
325,32.42160784,55.32008898,1141.122
326,32.42171534,55.31991127,1141.001
327,32.42182513,55.31979994,1141.303
328,32.42200063,55.31986012,1141.092
329,32.42217482,55.31993147,1140.805
330,32.42234784,55.32000427,1140.826
331,32.422516,55.32007504,1140.805
332,32.42268461,55.32014605,1140.543
333,32.42285449,55.32021756,1140.42
334,32.42302435,55.32028946,1140.441
335,32.42319347,55.32036097,1140.399
336,32.42336234,55.32043196,1140.248
337,32.42353394,55.32050386,1140.242
338,32.42367493,55.3205304,1140.407
339,32.42380073,55.32037746,1140.317
340,32.42387092,55.32024127,1140.544
341,32.42369792,55.32015267,1140.61
342,32.42352661,55.32007835,1140.587
343,32.42335543,55.32000576,1140.803
344,32.42318574,55.31993472,1141.028
345,32.42301783,55.31986424,1141.243
346,32.42284694,55.31979232,1141.458
347,32.4226782,55.31972116,1141.758
348,32.42250904,55.31965005,1141.803
349,32.42234011,55.3195788,1141.814
350,32.42217068,55.31950714,1142.1
351,32.42207354,55.31943579,1142.29
352,32.42218252,55.31925822,1141.909
353,32.422291,55.3191478,1142.304
354,32.42246464,55.31920688,1142.152
355,32.4226425,55.31928045,1141.756
356,32.42281351,55.31935287,1141.763
357,32.42298284,55.31942468,1141.647
358,32.42315089,55.3194958,1141.564
359,32.42332268,55.31956827,1141.403
360,32.42349198,55.31963978,1141.368
361,32.42366078,55.3197108,1141.336
362,32.42383145,55.31978267,1141.076
363,32.42400023,55.31985342,1140.839
364,32.42414653,55.31988309,1140.794
365,32.42427274,55.31972901,1140.661
366,32.42434227,55.31959312,1140.907
367,32.42417213,55.31950657,1140.968
368,32.42399624,55.31943039,1140.965
369,32.4238273,55.319359,1141.128
370,32.42365842,55.31928771,1141.259
371,32.42348941,55.31921654,1141.54
372,32.4233198,55.31914517,1141.667
373,32.42314856,55.31907331,1141.788
374,32.42298063,55.31900264,1141.928
375,32.42281123,55.3189315,1141.967
376,32.42264088,55.31886011,1141.978
377,32.422539,55.31878862,1142.165
378,32.42264724,55.31860972,1141.958
379,32.42275513,55.31849973,1142.035
380,32.42292929,55.31855931,1141.722
381,32.42310687,55.31863235,1141.362
382,32.42327712,55.31870377,1141.446
383,32.42344561,55.31877492,1141.444
384,32.42361385,55.31884602,1141.439
385,32.42378276,55.31891765,1141.49
386,32.42395173,55.31898893,1141.542
387,32.42412327,55.31906154,1141.63
388,32.42429211,55.31913261,1141.657
389,32.42446092,55.31920379,1141.658
390,32.42460998,55.31923322,1141.83
391,32.42473178,55.31907869,1141.44
392,32.42479947,55.31894131,1141.513
394,32.42445465,55.31877833,1141.504
395,32.42428649,55.31870668,1141.656
396,32.424115,55.31863505,1141.791
397,32.42394632,55.3185639,1141.913
398,32.42377727,55.31849271,1142.076
399,32.42360548,55.31842042,1142.197
400,32.42343714,55.31834945,1142.312
401,32.42326836,55.31827865,1142.379
402,32.42310078,55.31820794,1142.614
403,32.42300147,55.31813622,1142.999
404,32.42310825,55.31796056,1142.786
405,32.42321786,55.31784852,1143.143
406,32.42339068,55.3179056,1142.886
407,32.42356759,55.3179783,1142.503
408,32.42373954,55.31805001,1142.539
409,32.42390771,55.31812101,1142.537
410,32.42407808,55.31819253,1142.406
411,32.42424707,55.31826345,1142.318
412,32.4244152,55.31833446,1142.3
413,32.424583,55.31840474,1142.121
414,32.42475201,55.31847565,1142.17
415,32.42492286,55.31854813,1142.193
416,32.42506243,55.31857448,1142.374
417,32.42518598,55.31841768,1142.367
418,32.42525343,55.31828127,1142.535
419,32.42508321,55.31819446,1142.42
